# m=1, k=39.4784, p=2
# x0=0, v0=1
# t_start=0, t_end=50, h=0.001, b=20
#   t          x(t)               v(t)               KE(t)              PE(x(t)) 
0.0000  0.000000000000000e+00  1.000000000000000e+00  5.000000000000000e-01  0.000000000000000e+00  5.000000000000000e-01
0.0100  9.057503966643789e-03  8.170018692846138e-01  3.337460272072766e-01  1.619372675221841e-03  4.026759536958311e-01
0.0200  1.644076290571692e-02  6.642533090641097e-01  2.206162293013098e-01  5.335482180629626e-03  3.335204395900094e-01
0.0300  2.242685651280393e-02  5.368173741957974e-01  1.440864466192354e-01  9.928109304789622e-03  2.784189631987466e-01
0.0400  2.724763602576182e-02  4.305614942413604e-01  9.269160016167649e-02  1.465505321400849e-02  2.342089636298152e-01
0.0500  3.109709343630947e-02  3.420264470071248e-01  5.849104522615878e-02  1.908839169507060e-02  1.984852662744477e-01
0.0600  3.413753031025657e-02  2.683166746288916e-01  3.599691894195325e-02  2.300350102101901e-02  1.694112047179195e-01
0.0700  3.650472174493907e-02  2.070084657866196e-01  2.142625245366504e-02  2.630436522296199e-02  1.455781888154882e-01
0.0800  3.831223914344134e-02  1.560730938953361e-01  1.217940531903121e-02  2.897375682790378e-02  1.259010339749052e-01
0.0900  3.965506882396862e-02  1.138124751434477e-01  6.476639749138946e-03  3.104038912503579e-02  1.095397407847831e-01
0.1000  4.061264116427028e-02  7.880530706217642e-02  3.105138210581956e-03  3.255758693384574e-02  9.584087952452698e-02
0.1100  4.125136629792750e-02  4.986198048699066e-02  1.243108549042518e-03  3.358972250961213e-02  8.429353798704026e-02
0.1200  4.162675673945582e-02  2.598683584186851e-02  3.376578185361108e-04  3.420384196778713e-02  7.449611283250715e-02
0.1300  4.178520422283229e-02  6.346567453354785e-03  2.013945921999112e-05  3.446472354897011e-02  6.613119468466801e-02
0.1400  4.176546707828314e-02  -9.756225538593909e-03  4.759196837995601e-05  3.443217257359916e-02  5.894651014221898e-02
0.1500  4.159991529759265e-02  -2.290517998601894e-02  2.623236350959612e-04  3.415974607789243e-02  5.274040879169293e-02
0.1600  4.131557275803457e-02  -3.358870301774518e-02  5.641004852071420e-04  3.369436658675543e-02  4.735077045082088e-02
0.1700  4.093498964586223e-02  -4.221548725888203e-02  8.910736822524155e-04  3.307646667891187e-02  4.264649392866347e-02
0.1800  4.047697273835303e-02  -4.912749875179368e-02  1.206755566803745e-03  3.234042997059430e-02  3.852094036317273e-02
0.1900  3.995719669810845e-02  -5.461084924308691e-02  1.491172427525583e-03  3.151517798306074e-02  3.488686129573482e-02
0.2000  3.938871576186823e-02  -5.890489744652755e-02  1.734893471592964e-03  3.062480862532982e-02  3.167245842926760e-02
0.2100  3.878239204897253e-02  -6.220986775945686e-02  1.935033823324555e-03  2.968922941819483e-02  2.881830902893271e-02
0.2200  3.814725407173371e-02  -6.469322792113921e-02  2.092606869428233e-03  2.872475312468286e-02  2.627495590442904e-02
0.2300  3.749079681759676e-02  -6.649502776623127e-02  2.210794358815934e-03  2.774463928451385e-02  2.400100955726803e-02
0.2400  3.681923292095186e-02  -6.773236829850202e-02  2.293836857661961e-03  2.675957512839073e-02  2.196164658465679e-02
0.2500  3.613770289211547e-02  -6.850314274540856e-02  2.346340282998910e-03  2.577809542629775e-02  2.012741590418855e-02
0.2600  3.545045107318085e-02  -6.888916817950019e-02  2.372858746231731e-03  2.480694433512034e-02  1.847328509390407e-02
0.2700  3.476097290401983e-02  -6.895880697653504e-02  2.377658529813509e-03  2.385138415870408e-02  1.697787483006927e-02
0.2800  3.407213817226216e-02  -6.876916121043838e-02  2.364598766793632e-03  2.291545672675362e-02  1.562284131224535e-02
0.2900  3.338629415976150e-02  -6.836790954931068e-02  2.337085528071364e-03  2.200220324422587e-02  1.439237563093783e-02
0.3000  3.270535196074864e-02  -6.779484488559290e-02  2.298070496530801e-03  2.111384822846638e-02  1.327279595748731e-02
0.3100  3.203085871337284e-02  -6.708316144807901e-02  2.250075274934517e-03  2.025195271183827e-02  1.225221374216587e-02
0.3200  3.136405803973362e-02  -6.626053220309652e-02  2.195229063918796e-03  1.941754135427868e-02  1.132025918661111e-02
0.3300  3.070594061565068e-02  -6.535001070518508e-02  2.135311949583902e-03  1.861120755201853e-02  1.046785440505662e-02
0.3400  3.005728647846222e-02  -6.437078599331886e-02  2.071799044698828e-03  1.783320008651851e-02  9.687025126820521e-03
0.3500  2.941870041916073e-02  -6.333881447078157e-02  2.005902709282045e-03  1.708349435410048e-02  8.970743687370022e-03
0.3600  2.879064158586783e-02  -6.226734880758105e-02  1.938611363762483e-03  1.636185076265808e-02  8.312797533490122e-03
0.3700  2.817344824206465e-02  -6.116738064020054e-02  1.870724227191590e-03  1.566786248076605e-02  7.707678625638854e-03
0.3800  2.756735846931299e-02  -6.004801111107021e-02  1.802881819197606e-03  1.500099437563318e-02  7.150490030514488e-03
0.3900  2.697252747555403e-02  -5.891676100280260e-02  1.735592363530681e-03  1.436061467634729e-02  6.636866714940245e-03
0.4000  2.638904206237834e-02  -5.777983030747363e-02  1.669254395180224e-03  1.374602064318928e-02  6.162908121065441e-03
0.4100  2.581693271450990e-02  -5.664231546835781e-02  1.604175950808483e-03  1.315645930743004e-02  5.725120555360224e-03
0.4200  2.525618369928014e-02  -5.550839118974048e-02  1.540590746236629e-03  1.259114416395829e-02  5.320367785187665e-03
0.4300  2.470674150069466e-02  -5.438146258720296e-02  1.478671736561678e-03  1.204926854658414e-02  4.945828526381911e-03
0.4400  2.416852185981150e-02  -5.326429251050918e-02  1.418542428322542e-03  1.153001628859987e-02  4.598959738372230e-03
0.4500  2.364141564888083e-02  -5.215910808411179e-02  1.360286278065028e-03  1.103257016530945e-02  4.277464831737738e-03
0.4600  2.312529376963797e-02  -5.106768985139575e-02  1.303954473379174e-03  1.055611852739145e-02  3.979266045844616e-03
0.4700  2.262001123511969e-02  -4.999144635720365e-02  1.249572354442585e-03  1.009986046122616e-02  3.702480378602717e-03
0.4800  2.212541056840560e-02  -4.893147654145746e-02  1.197144698263601e-03  9.663009752206622e-03  3.445398552038203e-03
0.4900  2.164132462994806e-02  -4.788862193017236e-02  1.146660055185493e-03  9.244797877451846e-03  3.206466580775518e-03
0.5000  2.116757896695668e-02  -4.686351028659762e-02  1.098094298191020e-03  8.844476213464195e-03  2.984269579187206e-03
0.5100  2.070399376307069e-02  -4.585659211436361e-02  1.051413520171557e-03  8.461317610627545e-03  2.777517499710084e-03
0.5200  2.025038545380075e-02  -4.486817117777713e-02  1.006576392419155e-03  8.094617458774945e-03  2.585032541876241e-03
0.5300  1.980656806254771e-02  -4.389843001460275e-02  9.635360788734879e-04  7.743694345323651e-03  2.405738010757974e-03
0.5400  1.937235430307025e-02  -4.294745125778104e-02  9.222417847697390e-04  7.407890388814359e-03  2.238648436211718e-03
0.5500  1.894755648679339e-02  -4.201523544952811e-02  8.826400049396417e-04  7.086571315383081e-03  2.082860791685048e-03
0.5600  1.853198726708921e-02  -4.110171591991989e-02  8.446755257808982e-04  6.779126333144219e-03  1.937546674357387e-03
0.5700  1.812546024741906e-02  -4.020677120886026e-02  8.082922255208170e-04  6.484967849181130e-03  1.801945327778114e-03
0.5800  1.772779047583999e-02  -3.933023543230901e-02  7.734337095804274e-04  6.203531065421966e-03  1.675357404561509e-03
0.5900  1.733879484470510e-02  -3.847190692833333e-02  7.400438113511709e-04  5.934273482789239e-03  1.557139380601353e-03
0.6000  1.695829241131355e-02  -3.763155546387112e-02  7.080669833152041e-04  5.676674337378069e-03  1.446698544090597e-03
0.6100  1.658610465269282e-02  -3.680892823732684e-02  6.774485989903388e-04  5.430233987813902e-03  1.343488492713493e-03
0.6200  1.622205566554145e-02  -3.600375487380747e-02  6.481351825066076e-04  5.194473269180491e-03  1.247005080997300e-03
0.6300  1.586597232055801e-02  -3.521575157773447e-02  6.200745795923541e-04  4.968932825840503e-03  1.156782767200571e-03
0.6400  1.551768437887247e-02  -3.444462458071974e-02  5.932160812533612e-04  4.753172432969550e-03  1.072391315465596e-03
0.6500  1.517702457703331e-02  -3.369007300011979e-02  5.675105093767001e-04  4.546770314586474e-03  9.934328144338331e-04
0.6600  1.484382868594623e-02  -3.295179120486923e-02  5.429102718046484e-04  4.349322464204806e-03  9.195389782481911e-04
0.6700  1.451793554827530e-02  -3.222947076944615e-02  5.193693930392919e-04  4.160441972882828e-03  8.503686999557133e-04
0.6800  1.419918709807702e-02  -3.152280208363935e-02  4.968435256021486e-04  3.979758368356642e-03  7.856058308719075e-04
0.6900  1.388742836581761e-02  -3.083147567475169e-02  4.752899461414025e-04  3.806916968054987e-03  7.249571625525162e-04
0.7000  1.358250747140510e-02  -3.015518328963687e-02  4.546675396157972e-04  3.641578248078958e-03  6.681505907056007e-04
0.7100  1.328427560743386e-02  -2.949361877623392e-02  4.349367742589090e-04  3.483417229652698e-03  6.149334427226870e-04
0.7200  1.299258701447548e-02  -2.884647879779119e-02  4.160596695157082e-04  3.332122884087183e-03  5.650709525597690e-04
0.7300  1.270729894994629e-02  -2.821346340755323e-02  3.979997587246726e-04  3.187397556927719e-03  5.183448684971376e-04
0.7400  1.242827165182720e-02  -2.759427650714893e-02  3.807220479764956e-04  3.048956411659379e-03  4.745521808861194e-04
0.7500  1.215536829829866e-02  -2.698862620812243e-02  3.641929723008765e-04  2.916526893109537e-03  4.335039583796340e-04
0.7600  1.188845496417574e-02  -2.639622511287115e-02  3.483803501046848e-04  2.789848210501495e-03  3.950242823674621e-04
0.7700  1.162740057487903e-02  -2.581679052859479e-02  3.332533365986708e-04  2.668670839968441e-03  3.589492704171145e-04
0.7800  1.137207685855286e-02  -2.525004462563321e-02  3.187823767982344e-04  2.552756046225153e-03  3.251261804766346e-04
0.7900  1.112235829683779e-02  -2.469571454970744e-02  3.049391585603159e-04  2.441875423009659e-03  2.934125884411638e-04
0.8000  1.087812207471747e-02  -2.415353249601813e-02  2.916965660181018e-04  2.335810451843338e-03  2.636756324354250e-04
0.8100  1.063924802978702e-02  -2.362323575185065e-02  2.790286336937573e-04  2.234352078611690e-03  2.357913178306752e-04
0.8200  1.040561860122936e-02  -2.310456671324312e-02  2.669105015033510e-04  2.137300307435536e-03  2.096438776073367e-04
0.8300  1.017711877873470e-02  -2.259727288035933e-02  2.553183708147117e-04  2.044463811281325e-03  1.851251832029063e-04
0.8400  9.953636051556500e-03  -2.210110683544333e-02  2.442294616758399e-04  1.955659558746926e-03  1.621342014556918e-04
0.8500  9.735060357861171e-03  -2.161582620659182e-02  2.336219712967910e-04  1.870712456454154e-03  1.405764936760100e-04
0.8600  9.521284034499519e-03  -2.114119362004492e-02  2.234750338401141e-04  1.789455006479704e-03  1.203637532529939e-04
0.8700  9.312201767303145e-03  -2.067697664324703e-02  2.137686815526916e-04  1.711726978261009e-03  1.014133785423357e-04
0.8800  9.107710541988457e-03  -2.022294772055465e-02  2.044838072541432e-04  1.637375094421741e-03  8.364807808301763e-05
0.8900  8.907709595733677e-03  -1.977888410315402e-02  1.956021281829993e-04  1.566252729972452e-03  6.699550546241028e-05
0.9000  8.712100369480176e-03  -1.934456777448883e-02  1.871061511908959e-04  1.498219624354664e-03  5.138792139348425e-05
0.9100  8.520786460997347e-03  -1.891978537227858e-02  1.789791392665433e-04  1.433141605810804e-03  3.676188078763336e-05
0.9200  8.333673578740562e-03  -1.850432810802457e-02  1.712050793647140e-04  1.370890327577624e-03  2.305794280459502e-05
0.9300  8.150669496523471e-03  -1.809799168474685e-02  1.637686515105830e-04  1.311343015416541e-03  1.022040203962080e-05
0.9400  7.971684009019157e-03  -1.770057621356714e-02  1.566551991461495e-04  1.254382226010590e-03  -1.802960830606960e-06
0.9500  7.796628888099089e-03  -1.731188612964511e-02  1.498507006828994e-04  1.199895615774089e-03  -1.306111047597369e-05
0.9600  7.625417840014173e-03  -1.693173010788604e-02  1.433417422231473e-04  1.147775719637552e-03  -2.359997181555773e-05
0.9700  7.457966463418396e-03  -1.655992097876284e-02  1.371154914114348e-04  1.097919739386695e-03  -3.346262967608964e-05
0.9800  7.294192208232509e-03  -1.619627564453270e-02  1.311596723768416e-04  1.050229341150485e-03  -4.268951437892251e-05
0.9900  7.134014335342579e-03  -1.584061499607664e-02  1.254625417269641e-04  1.004610461648948e-03  -5.131857432996874e-05
1.0000  6.977353877126259e-03  -1.549276383054636e-02  1.200128655545427e-04  9.609731228269249e-04  -5.938543659759432e-05
1.0100  6.824133598797924e-03  -1.515255076996675e-02  1.147998974182100e-04  9.192312545149463e-04  -6.692355638225361e-05
1.0200  6.674277960562486e-03  -1.481980818091199e-02  1.098133572595129e-04  8.793025247730384e-04  -7.396435620765422e-05
1.0300  6.527713080566700e-03  -1.449437209534776e-02  1.050434112191979e-04  8.411081775873821e-04  -8.053735559595489e-05
1.0400  6.384366698635906e-03  -1.417608213271160e-02  1.004806523166925e-04  8.045728776034397e-04  -8.667029192799952e-05
1.0500  6.244168140783536e-03  -1.386478142328544e-02  9.611608195774053e-05  7.696245615923505e-04  -9.238923313369745e-05
1.0600  6.107048284480277e-03  -1.356031653290035e-02  9.194109223622524e-05  7.361942963601361e-04  -9.771868280636626e-05
1.0700  5.972939524669396e-03  -1.326253738900118e-02  8.794744899732714e-05  7.042161428214979e-04  -1.026816782882600e-04
1.0800  5.841775740514542e-03  -1.297129720808925e-02  8.412727563029192e-05  6.736270259717788e-04  -1.072998822316201e-04
1.0900  5.713492262866184e-03  -1.268645242455257e-02  8.047303756021783e-05  6.443666105019963e-04  -1.115936681005572e-04
1.1000  5.588025842432811e-03  -1.240786262088689e-02  7.697752740940102e-05  6.163771818127262e-04  -1.155822000432106e-04
1.1100  5.465314618642946e-03  -1.213539045930490e-02  7.363385079989414e-05  5.896035321930652e-04  -1.192835075308096e-04
1.1200  5.345298089184184e-03  -1.186890161472663e-02  7.043541277003022e-05  5.639928519409239e-04  -1.227145551300911e-04
1.1300  5.227917080205446e-03  -1.160826470914041e-02  6.737590477873736e-05  5.394946252105040e-04  -1.258913077479235e-04
1.1400  5.113113717168833e-03  -1.135335124732062e-02  6.444929227251831e-05  5.160605303820326e-04  -1.288287916616691e-04
1.1500  5.000831396337581e-03  -1.110403555388637e-02  6.164980279098624e-05  4.936443447576500e-04  -1.315411516252743e-04
1.1600  4.891014756886800e-03  -1.086019471168307e-02  5.897191458783450e-05  4.722018533958076e-04  -1.340417043199197e-04
1.1700  4.783609653623865e-03  -1.062170850146756e-02  5.641034574507409e-05  4.516907619046337e-04  -1.363429883980037e-04
1.1800  4.678563130305520e-03  -1.038845934287613e-02  5.396004375929519e-05  4.320706130224822e-04  -1.384568113513426e-04
1.1900  4.575823393538980e-03  -1.016033223665426e-02  5.161617557959784e-05  4.133027068213093e-04  -1.403942934174977e-04
1.2000  4.475339787254513e-03  -9.937214708125719e-03  4.937411807769506e-05  3.953500243756360e-04  -1.421659087228170e-04
1.2100  4.377062767737235e-03  -9.718996751878872e-03  4.722944893151604e-05  3.781771547466596e-04  -1.437815238465701e-04
1.2200  4.280943879206044e-03  -9.505570777647123e-03  4.517793790442947e-05  3.617502251375958e-04  -1.452504339772729e-04
1.2300  4.186935729927876e-03  -9.296831557360864e-03  4.321553850297042e-05  3.460368340825711e-04  -1.465813968203202e-04
1.2400  4.094991968855687e-03  -9.092676173347764e-03  4.133837999668307e-05  3.310059875373494e-04  -1.477826644047415e-04
1.2500  4.005067262778771e-03  -8.893003967658681e-03  3.954275978439652e-05  3.166280377458909e-04  -1.488620129265641e-04
1.2600  3.917117273974299e-03  -8.697716492496297e-03  3.782513609192104e-05  3.028746247622067e-04  -1.498267707566523e-04
1.2700  3.831098638349148e-03  -8.506717461723958e-03  3.618212098679965e-05  2.897186205122001e-04  -1.506838447320937e-04
1.2800  3.746968944061332e-03  -8.319912703432374e-03  3.461047369636770e-05  2.771340752851898e-04  -1.514397448419400e-04
1.2900  3.664686710610568e-03  -8.137210113542022e-03  3.310709421596528e-05  2.650961665495963e-04  -1.521006074104717e-04
1.3000  3.584211368387736e-03  -7.958519610419551e-03  3.166901719471628e-05  2.535811499918533e-04  -1.526722168742299e-04
1.3100  3.505503238673190e-03  -7.783753090486649e-03  3.029340608683023e-05  2.425663126819881e-04  -1.531600262423939e-04
1.3200  3.428523514074107e-03  -7.612824384800313e-03  2.897754755690513e-05  2.320299282735036e-04  -1.535691763241272e-04
1.3300  3.353234239391262e-03  -7.445649216583678e-03  2.771884612820657e-05  2.219512141492084e-04  -1.539045138008164e-04
1.3400  3.279598292905829e-03  -7.282145159687072e-03  2.651481906337693e-05  2.123102904284757e-04  -1.541706082159939e-04
1.3500  3.207579368077005e-03  -7.122231597959229e-03  2.536309146748444e-05  2.030881407550815e-04  -1.543717679507876e-04
1.3600  3.137141955641447e-03  -6.965829685508990e-03  2.426139160375914e-05  1.942665747882841e-04  -1.545120552483485e-04
1.3700  3.068251326105730e-03  -6.812862307838240e-03  2.320754641278150e-05  1.858281923231658e-04  -1.545953003464134e-04
1.3800  3.000873512623189e-03  -6.663254043827171e-03  2.219947722628958e-05  1.777563489694672e-04  -1.546251147733668e-04
1.3900  2.934975294246727e-03  -6.516931128553330e-03  2.123519566715369e-05  1.700351233212243e-04  -1.546049038594903e-04
1.4000  2.870524179549345e-03  -6.373821416926328e-03  2.031279972743437e-05  1.626492855524505e-04  -1.545378785117370e-04
1.4100  2.807488390604310e-03  -6.233854348120426e-03  1.943047001678997e-05  1.555842673769246e-04  -1.544270662972100e-04
1.4200  2.745836847317092e-03  -6.096960910787582e-03  1.858646617383587e-05  1.488261333128324e-04  -1.542753218776750e-04
1.4300  2.685539152101330e-03  -5.963073609033921e-03  1.777912343337841e-05  1.423615531955845e-04  -1.540853368346078e-04
1.4400  2.626565574891289e-03  -5.832126429142949e-03  1.700684934275385e-05  1.361777758845935e-04  -1.538596489218712e-04
1.4500  2.568887038483427e-03  -5.704054807029164e-03  1.626812062079626e-05  1.302626041121501e-04  -1.536006507806210e-04
1.4600  2.512475104199825e-03  -5.578795596406094e-03  1.556148015324001e-05  1.246043704247882e-04  -1.533105981489554e-04
1.4700  2.457301957866443e-03  -5.456287037653122e-03  1.488553411863074e-05  1.191919141696859e-04  -1.529916175966858e-04
1.4800  2.403340396099272e-03  -5.336468727365768e-03  1.423894923907641e-05  1.140145594807095e-04  -1.526457138137453e-04
1.4900  2.350563812891632e-03  -5.219281588574491e-03  1.362045015041633e-05  1.090620942206783e-04  -1.522747764789086e-04
1.5000  2.298946186495995e-03  -5.104667841617320e-03  1.302881688662102e-05  1.043247498383159e-04  -1.518805867338671e-04
1.5100  2.248462066593877e-03  -4.992570975651999e-03  1.246288247346138e-05  9.979318210015653e-05  -1.514648232861157e-04
1.5200  2.199086561747467e-03  -4.882935720793620e-03  1.192153062670115e-05  9.545845265940119e-05  -1.510290681627008e-04
1.5300  2.150795327126815e-03  -4.775708020864024e-03  1.140369355027249e-05  9.131201142536930e-05  -1.505748121354084e-04
1.5400  2.103564552506514e-03  -4.670835006739542e-03  1.090834983009179e-05  8.734567969876972e-05  -1.501034598368350e-04
1.5500  2.057370950525972e-03  -4.568264970283958e-03  1.043452241936175e-05  8.355163403952671e-05  -1.496163345854763e-04
1.5600  2.012191745207490e-03  -4.467947338853843e-03  9.981276711385571e-06  7.992239083534148e-05  -1.491146829369045e-04
1.5700  1.968004660726459e-03  -4.369832650363709e-03  9.547718696092358e-06  7.645079154054981e-05  -1.485996789771021e-04
1.5800  1.924787910428178e-03  -4.273872528898688e-03  9.132993196637435e-06  7.312998855616192e-05  -1.480724283729300e-04
1.5900  1.882520186085842e-03  -4.180019660862717e-03  8.736282182599431e-06  6.995343172323220e-05  -1.475339721939310e-04
