# omega0=1, alpha=0
# theta0=0.8, theta_dot0=0
# t_start=0, t_end=50, h=0.00911928
#   t          x(t)                 v(t)       
0  8.000000000000000e-01  0.000000000000000e+00
9.119282013323059e-02 7.970186273702200e-01 -6.535451447993854e-02
1.823856402664613e-01 7.880918277575897e-01 -1.303288186565224e-01
2.735784603996920e-01 7.732717694065420e-01 -1.945380575874005e-01
3.647712805329227e-01 7.526460911867749e-01 -2.575885158439395e-01
4.559641006661534e-01 7.263388721601061e-01 -3.190742497542644e-01
5.471569207993838e-01 6.945118543583800e-01 -3.785749655837707e-01
6.383497409326140e-01 6.573657883754819e-01 -4.356555036128136e-01
7.295425610658441e-01 6.151417410932113e-01 -4.898672281645911e-01
8.207353811990743e-01 5.681221812525847e-01 -5.407515363604511e-01
9.119282013323045e-01 5.166316443229186e-01 -5.878455803027693e-01
1.003121021465535e+00 4.610367760404673e-01 -6.306901488254049e-01
1.094313841598765e+00 4.017455666517458e-01 -6.688394816246893e-01
1.185506661731995e+00 3.392056170598711e-01 -7.018726026128268e-01
1.276699481865225e+00 2.739013240928580e-01 -7.294055791286407e-01
1.367892301998455e+00 2.063499334389062e-01 -7.511039622569117e-01
1.459085122131685e+00 1.370964816759381e-01 -7.666945654209700e-01
1.550277942264916e+00 6.670772738244743e-02 -7.759757150332108e-01
1.641470762398146e+00 -4.234751950732293e-03 -7.788251717887907e-01
1.732663582531376e+00 -7.514205379416199e-02 -7.752050756491764e-01
1.823856402664606e+00 -1.454257428829945e-01 -7.651634991648861e-01
1.915049222797836e+00 -2.145056243577631e-01 -7.488324769100401e-01
2.006242042931067e+00 -2.818171817814107e-01 -7.264226786325267e-01
2.097434863064297e+00 -3.468183923621754e-01 -6.982151724013692e-01
2.188627683197527e+00 -4.089956831293631e-01 -6.645509475503265e-01
2.279820503330757e+00 -4.678688601267916e-01 -6.258190113654245e-01
2.371013323463987e+00 -5.229949200668573e-01 -5.824439274079894e-01
2.462206143597217e+00 -5.739707321401772e-01 -5.348736301700513e-01
2.553398963730448e+00 -6.204346494497960e-01 -4.835682450870523e-01
2.644591783863678e+00 -6.620671691927655e-01 -4.289904868168587e-01
2.735784603996908e+00 -6.985908047625623e-01 -3.715980266561474e-01
2.826977424130138e+00 -7.297693600899897e-01 -3.118380346497379e-01
2.918170244263368e+00 -7.554068073318493e-01 -2.501439310678769e-01
3.009363064396598e+00 -7.753459653392597e-01 -1.869342368197082e-01
3.100555884529828e+00 -7.894671608146244e-01 -1.226132980405223e-01
3.191748704663059e+00 -7.976870295280335e-01 -5.757357631294224e-02
3.282941524796289e+00 -7.999575840451114e-01 7.800860998784172e-03
3.374134344929519e+00 -7.962656393199105e-01 7.313005146741092e-02
3.465327165062749e+00 -7.866326499175862e-01 1.380334703634102e-01
3.556519985195979e+00 -7.711149737868617e-01 2.021254147244626e-01
3.647712805329209e+00 -7.498045383368643e-01 2.650108669184268e-01
3.738905625462440e+00 -7.228298459347920e-01 3.262822551402018e-01
3.830098445595670e+00 -6.903572188187854e-01 3.855175051383906e-01
3.921291265728900e+00 -6.525921491462824e-01 4.422797372570109e-01
4.012484085862130e+00 -6.097805902825743e-01 4.961188999670365e-01
4.103676905995361e+00 -5.622100027944260e-01 5.465755402374153e-01
4.194869726128591e+00 -5.102099556588192e-01 5.931867892742102e-01
4.286062546261821e+00 -4.541520827502540e-01 6.354944902230347e-01
4.377255366395051e+00 -3.944492092307845e-01 6.730552188288749e-01
4.468448186528281e+00 -3.315534936549087e-01 7.054517616844025e-01
4.559641006661511e+00 -2.659534795702605e-01 7.323054386536615e-01
4.650833826794742e+00 -1.981700133400551e-01 7.532885097599578e-01
4.742026646927972e+00 -1.287510588194629e-01 7.681358166358825e-01
4.833219467061202e+00 -5.826551827787319e-02 7.766547952646672e-01
4.924412287194432e+00 1.270375507227471e-02 7.787330724229037e-01
5.015605107327662e+00 8.356750262042653e-02 7.743430228297598e-01
5.106797927460892e+00 1.537378672753722e-01 7.635429033267020e-01
5.197990747594122e+00 2.226361429189115e-01 7.464744674780341e-01
5.289183567727353e+00 2.897001524479988e-01 7.233572632670163e-01
5.380376387860583e+00 3.543909717527174e-01 6.944800903038534e-01
5.471569207993813e+00 4.161987707799630e-01 6.601903080455287e-01
5.562762028127043e+00 4.746476126612465e-01 6.208818202087014e-01
5.653954848260273e+00 5.292991297889776e-01 5.769826036905076e-01
5.745147668393503e+00 5.797550735642109e-01 5.289426075163031e-01
5.836340488526734e+00 6.256588051239282e-01 4.772227343953224e-01
5.927533308659964e+00 6.666958522879234e-01 4.222854569709830e-01
6.018726128793194e+00 7.025937000279441e-01 3.645874373092697e-01
6.109918948926424e+00 7.331210068954135e-01 3.045743337622428e-01
6.201111769059654e+00 7.580864487914616e-01 2.426778110707746e-01
6.292304589192884e+00 7.773373862267214e-01 1.793146279869602e-01
6.383497409326115e+00 7.907585344725050e-01 1.148875661072416e-01
6.474690229459345e+00 7.982707905744901e-01 4.978788327258373e-02
6.565883049592575e+00 7.998303396771725e-01 -1.560107924284623e-02
6.657075869725805e+00 7.954281276331335e-01 -8.089954001592252e-02
6.748268689859035e+00 7.850897490753045e-01 -1.457265937497932e-01
6.839461509992265e+00 7.688757612021383e-01 -2.096956301516363e-01
6.930654330125495e+00 7.468823943778367e-01 -2.724102828561480e-01
7.021847150258726e+00 7.192425921354771e-01 -3.334613238029757e-01
7.113039970391956e+00 6.861272763100013e-01 -3.924248935712720e-01
7.204232790525186e+00 6.477466992042036e-01 -4.488624155589335e-01
7.295425610658416e+00 6.043517157761069e-01 -5.023224759036430e-01
7.386618430791646e+00 5.562347872034512e-01 -5.523448566223496e-01
7.477811250924876e+00 5.037305155712913e-01 -5.984667838915207e-01
7.569004071058107e+00 4.472155106522242e-01 -6.402312981742104e-01
7.660196891191337e+00 3.871074062306394e-01 -6.771974752086742e-01
7.751389711324567e+00 3.238628766378538e-01 -7.089520403918208e-01
7.842582531457797e+00 2.579745540566920e-01 -7.351217435464814e-01
7.933775351591027e+00 1.899668116607668e-01 -7.553857202009810e-01
8.024968171724257e+00 1.203904524964321e-01 -7.694869835146972e-01
8.116160991857488e+00 4.981642286529060e-02 -7.772421878044309e-01
8.207353811990718e+00 -2.117125594831068e-02 -7.785488911876765e-01
8.298546632123948e+00 -9.198308064547478e-02 -7.733897193843932e-01
8.389739452257178e+00 -1.620318828784446e-01 -7.618330793652617e-01
8.480932272390408e+00 -2.307405505213697e-01 -7.440303620308802e-01
8.572125092523638e+00 -2.975493416914815e-01 -7.202098712987764e-01
8.663317912656868e+00 -3.619225142089059e-01 -6.906679853025768e-01
8.754510732790099e+00 -4.233540492774738e-01 -6.557582617303094e-01
8.845703552923329e+00 -4.813723193936369e-01 -6.158793224124504e-01
8.936896373056559e+00 -5.355436288071298e-01 -5.714623846625542e-01
9.028089193189789e+00 -5.854746321790862e-01 -5.229592547062226e-01
9.119282013323019e+00 -6.308137064022183e-01 -4.708314786570363e-01
9.210474833456249e+00 -6.712514067121474e-01 -4.155411819790775e-01
9.301667653589480e+00 -7.065201782788604e-01 -3.575439436458965e-01
9.392860473722710e+00 -7.363935176016392e-01 -2.972838679516157e-01
9.484053293855940e+00 -7.606847851631796e-01 -2.351908514143546e-01
9.575246113989170e+00 -7.792458640420964e-01 -1.716799042113606e-01
9.666438934122400e+00 -7.919658412548544e-01 -1.071522787244345e-01
9.757631754255630e+00 -7.987698623125120e-01 -4.199808082244980e-02
9.848824574388860e+00 -7.996182773812111e-01 2.340001186182819e-02
9.940017394522091e+00 -7.945061616084188e-01 8.866233180259436e-02
1.003121021465532e+01 -7.834632541907867e-01 1.534075274903393e-01
1.012240303478855e+01 -7.665543217603812e-01 2.172480232073476e-01
1.021359585492178e+01 -7.438799125478118e-01 2.797860592336369e-01
1.030478867505501e+01 -7.155774294045668e-01 3.406107256785486e-01
1.039598149518824e+01 -6.818224131866963e-01 3.992963763976224e-01
1.048717431532147e+01 -6.428298946550496e-01 4.554027643515721e-01
1.057836713545470e+01 -5.988556448672135e-01 5.084771706198110e-01
1.066955995558793e+01 -5.501971334501679e-01 5.580587012244994e-01
1.076075277572116e+01 -4.971939939185103e-01 6.036847966525423e-01
1.085194559585439e+01 -4.402277981319400e-01 6.448998405650669e-01
1.094313841598762e+01 -3.797209604103767e-01 6.812655745974462e-01
1.103433123612085e+01 -3.161346270678345e-01 7.123728398359163e-01
1.112552405625408e+01 -2.499654589117069e-01 7.378539928543941e-01
1.121671687638731e+01 -1.817412802614687e-01 7.573952091216276e-01
1.130790969652054e+01 -1.120156437292899e-01 7.707478130796219e-01
1.139910251665377e+01 -4.136143883340845e-02 7.777377813651207e-01
1.149029533678700e+01 2.963625339873631e-02 7.782726630640763e-01
1.158148815692023e+01 1.003877965165829e-01 7.723453451177439e-01
1.167268097705346e+01 1.703068210820324e-01 7.600343445654459e-01
1.176387379718669e+01 2.388179132959317e-01 7.415006027137395e-01
1.185506661731992e+01 3.053638610289275e-01 7.169810528797370e-01
1.194625943745315e+01 3.694121855994724e-01 6.867794958060918e-01
1.203745225758638e+01 4.304607459305438e-01 6.512555141013394e-01
1.212864507771961e+01 4.880422742217569e-01 6.108122694396553e-01
1.221983789785284e+01 5.417277808843382e-01 5.658840479956320e-01
1.231103071798607e+01 5.911288431913422e-01 5.169243582963857e-01
1.240222353811930e+01 6.358988600745649e-01 4.643952591909806e-01
1.249341635825254e+01 6.757334098547078e-01 4.087584274457404e-01
1.258460917838577e+01 7.103698857373492e-01 3.504682888692985e-01
1.267580199851900e+01 7.395866050561417e-01 2.899673550017743e-01
1.276699481865223e+01 7.632015935927416e-01 2.276837447829465e-01
1.285818763878546e+01 7.810712380654646e-01 1.640307362462947e-01
1.294938045891869e+01 7.930889808086157e-01 9.940809013399526e-02
1.304057327905192e+01 7.991842035600832e-01 3.420481369536729e-02
1.313176609918515e+01 7.993214146343688e-01 -3.119701575468803e-02
1.322295891931838e+01 7.934998176008259e-01 -9.641777733323878e-02
1.331415173945161e+01 7.817533014265486e-01 -1.610756082553480e-01
1.340534455958484e+01 7.641508529858579e-01 -2.247819105845778e-01
1.349653737971807e+01 7.407973537616118e-01 -2.871374886124360e-01
1.358773019985130e+01 7.118346843401872e-01 -3.477297276610053e-01
1.367892301998453e+01 6.774430240228402e-01 -4.061311964645057e-01
1.377011584011776e+01 6.378422000335883e-01 -4.619000076130979e-01
1.386130866025099e+01 5.932929133930858e-01 -5.145821981725777e-01
1.395250148038422e+01 5.440976490280957e-01 -5.637162908662544e-01
1.404369430051745e+01 4.906010688878099e-01 -6.088400632503492e-01
1.413488712065068e+01 4.331896915064273e-01 -6.494993908467984e-01
1.422607994078391e+01 3.722906818383831e-01 -6.852588489220207e-01
1.431727276091714e+01 3.083696124592875e-01 -7.157135717395251e-01
1.440846558105037e+01 2.419271108722174e-01 -7.405016985996017e-01
1.449965840118360e+01 1.734943751021902e-01 -7.593166070389666e-01
1.459085122131683e+01 1.036276162021242e-01 -7.719180688171957e-01
1.468204404145006e+01 3.290156498703477e-02 -7.781414819776030e-01
1.477323686158329e+01 -3.809774671883413e-02 -7.779044404976940e-01
1.486442968171652e+01 -1.087806609282715e-01 -7.712100967253787e-01
1.495562250184975e+01 -1.785617168115441e-01 -7.581470318582364e-01
1.504681532198298e+01 -2.468673022569907e-01 -7.388856455063868e-01
1.513800814211621e+01 -3.131428280234406e-01 -7.136713697650992e-01
1.522920096224944e+01 -3.768591587854770e-01 -6.828152693469877e-01
1.532039378238267e+01 -4.375180957558464e-01 -6.466827772304966e-01
1.541158660251590e+01 -4.946567792379447e-01 -6.056814168772402e-01
1.550277942264913e+01 -5.478509582511211e-01 -5.602483732736024e-01
1.559397224278236e+01 -5.967171503614580e-01 -5.108387048918470e-01
1.568516506291559e+01 -6.409137814199356e-01 -4.579148559181685e-01
1.577635788304882e+01 -6.801414474175916e-01 -4.019379565814967e-01
1.586755070318205e+01 -7.141424766915362e-01 -3.433612132408558e-01
1.595874352331528e+01 -7.426999898953154e-01 -2.826255096259272e-01
1.604993634344851e+01 -7.656366587431219e-01 -2.201571810293038e-01
1.614112916358174e+01 -7.828133548585615e-01 -1.563677925542086e-01
1.623232198371497e+01 -7.941278598869734e-01 -9.165565305237805e-02
1.632351480384820e+01 -7.995137801429457e-01 -2.640872600627566e-02
1.641470762398143e+01 -7.989397759090389e-01 3.899144747472749e-02
1.650590044411466e+01 -7.924091790352662e-01 1.041652258356852e-01
1.659709326424789e+01 -7.799600341698586e-01 1.687301706226053e-01
1.668828608438112e+01 -7.616655598481924e-01 2.322966062710474e-01
1.677947890451435e+01 -7.376349866436758e-01 2.944638605166180e-01
1.687067172464758e+01 -7.080146915291471e-01 3.548175936251191e-01
1.696186454478081e+01 -6.729895116403252e-01 4.129285940242206e-01
1.705305736491404e+01 -6.327840883230359e-01 4.683533675941317e-01
1.714425018504727e+01 -5.876640657401238e-01 5.206367722113899e-01
1.723544300518050e+01 -5.379369499404147e-01 5.693168437129112e-01
1.732663582531373e+01 -4.839524269594698e-01 6.139318228429489e-01
1.741782864544696e+01 -4.261019449620467e-01 6.540292283317123e-01
1.750902146558019e+01 -3.648173878026912e-01 6.891766385075579e-01
1.760021428571342e+01 -3.005687066648480e-01 7.189736587408115e-01
1.769140710584665e+01 -2.338604319099708e-01 7.430643860396327e-01
1.778259992597988e+01 -1.652270560785731e-01 7.611495596527206e-01
1.787379274611311e+01 -9.522735608086517e-02 7.729975308154016e-01
1.796498556624634e+01 -2.443780105843230e-02 7.784532130464201e-01
1.805617838637957e+01 4.655473586903928e-02 7.774442933677381e-01
1.814737120651280e+01 1.171606868053769e-01 7.699841876789876e-01
1.823856402664603e+01 1.867956086971064e-01 7.561714896319088e-01
1.832975684677927e+01 2.548877934516505e-01 7.361859599759645e-01
1.842094966691250e+01 3.208853664087910e-01 7.102813950272000e-01
1.851214248704573e+01 3.842626137178803e-01 6.787759622781635e-01
1.860333530717896e+01 4.445253415479498e-01 6.420407694643754e-01
1.869452812731219e+01 5.012151447724114e-01 6.004875241573013e-01
1.878572094744542e+01 5.539125416249667e-01 5.545561417504349e-01
1.887691376757865e+01 6.022390060033124e-01 5.047030809507737e-01
1.896810658771188e+01 6.458579941903865e-01 4.513910472191393e-01
1.905929940784511e+01 6.844751133889827e-01 3.950805301142617e-01
1.915049222797834e+01 7.178376134634354e-01 3.362234540435177e-01
1.924168504811157e+01 7.457334005111288e-01 2.752590434769456e-01
1.933287786824480e+01 7.679897727640004e-01 2.126118472246640e-01
1.942407068837803e+01 7.844720682402989e-01 1.486917393876627e-01
1.951526350851126e+01 7.950823923333172e-01 8.389561877302547e-02
1.960645632864449e+01 7.997585648884937e-01 1.861046136589155e-02
1.969764914877772e+01 7.984733926772429e-01 -4.678266311506642e-02
1.978884196891095e+01 7.912343364209675e-01 -1.119040251547856e-01
1.988003478904418e+01 7.780836030559557e-01 -1.763705469921153e-01
1.997122760917741e+01 7.590986547920873e-01 -2.397914214934023e-01
2.006242042931064e+01 7.343930875611866e-01 -3.017644614153063e-01
2.015361324944387e+01 7.041177935796195e-01 -3.618735844547196e-01
2.024480606957710e+01 6.684622871367514e-01 -4.196878068140038e-01
2.033599888971033e+01 6.276560409731172e-01 -4.747620649514857e-01
2.042719170984356e+01 5.819696548473519e-01 -5.266401061650432e-01
2.051838452997679e+01 5.317156606840875e-01 -5.748595795077672e-01
2.060957735011002e+01 4.772487628675514e-01 -6.189593183269240e-01
2.070077017024325e+01 4.189653204891384e-01 -6.584886384913202e-01
2.079196299037648e+01 3.573019027179965e-01 -6.930182923821340e-01
2.088315581050971e+01 2.927327897550687e-01 -7.221525346837910e-01
2.097434863064294e+01 2.257663490862326e-01 -7.455415939224384e-01
2.106554145077617e+01 1.569402868556772e-01 -7.628937280449355e-01
2.115673427090940e+01 8.681585183205134e-02 -7.739859958915197e-01
2.124792709104263e+01 1.597114751813579e-02 -7.786729153950200e-01
2.133911991117586e+01 -5.500622166430377e-02 -7.768923089457576e-01
2.143031273130909e+01 -1.255268894848131e-01 -7.686678481021416e-01
2.152150555144232e+01 -1.950075392405893e-01 -7.541080815353431e-01
2.161269837157555e+01 -2.628784681061073e-01 -7.334020290240163e-01
2.170389119170878e+01 -3.285906062109111e-01 -7.068117127661520e-01
2.179508401184201e+01 -3.916217375318036e-01 -6.746622394684184e-01
2.188627683197524e+01 -4.514817339459230e-01 -6.373302151254712e-01
2.197746965210847e+01 -5.077166894335544e-01 -5.952313542819949e-01
2.206866247224170e+01 -5.599119202272003e-01 -5.488081361130915e-01
2.215985529237493e+01 -6.076938709815510e-01 -4.985182725951443e-01
2.225104811250816e+01 -6.507310305935620e-01 -4.448246097977170e-01
2.234224093264139e+01 -6.887340100158096e-01 -3.881869062071862e-01
2.243343375277462e+01 -7.214549663763902e-01 -3.290557455511753e-01
2.252462657290785e+01 -7.486865730179262e-01 -2.678686651628894e-01
2.261581939304108e+01 -7.702607352618105e-01 -2.050484277129889e-01
2.270701221317431e+01 -7.860472392631893e-01 -1.410032408734563e-01
2.279820503330754e+01 -7.959524990663330e-01 -7.612863727067955e-02
2.288939785344077e+01 -7.999185376209137e-01 -1.081066299502612e-02
2.298059067357400e+01 -7.979223034162578e-01 5.457001819470707e-02
2.307178349370723e+01 -7.899753873670792e-01 1.196335216492407e-01
2.316297631384046e+01 -7.761241659921845e-01 1.839960675038445e-01
2.325416913397369e+01 -7.564503577676360e-01 2.472656646655243e-01
2.334536195410692e+01 -7.310719406573676e-01 3.090385747102983e-01
2.343655477424015e+01 -7.001443411534892e-01 3.688969580769402e-01
2.352774759437338e+01 -6.638617699123200e-01 4.264080701420975e-01
2.361894041450661e+01 -6.224585479166471e-01 4.811253188883730e-01
2.371013323463984e+01 -5.762102422077807e-01 5.325914134347163e-01
2.380132605477307e+01 -5.254344142313977e-01 5.803437198124075e-01
2.389251887490630e+01 -4.704907795577380e-01 6.239217966148149e-01
2.398371169503953e+01 -4.117805878134137e-01 6.628769132562153e-01
2.407490451517276e+01 -3.497450580293618e-01 6.967831685807697e-01
2.416609733530600e+01 -2.848627478949948e-01 7.252496449057495e-01
2.425729015543923e+01 -2.176457944037189e-01 7.479328747358809e-01
2.434848297557246e+01 -1.486350346996508e-01 7.645487888718560e-01
2.443967579570569e+01 -7.839409404025012e-02 7.748832777105759e-01
2.453086861583892e+01 -7.502605385325879e-03 7.788005473007306e-01
2.462206143597215e+01 6.345120596296359e-02 7.762485918441394e-01
2.471325425610538e+01 1.338782868959399e-01 7.672613246367349e-01
2.480444707623861e+01 2.031965549804578e-01 7.519571862736827e-01
2.489563989637184e+01 2.708384127692601e-01 7.305343486280881e-01
2.498683271650507e+01 3.362576838662342e-01 7.032629178175606e-01
2.507802553663830e+01 3.989357246374809e-01 6.704747739976662e-01
2.516921835677153e+01 4.583865314967085e-01 6.325518442153140e-01
2.526041117690476e+01 5.141607401453047e-01 5.899136735522941e-01
2.535160399703799e+01 5.658484917973013e-01 5.430051402496927e-01
2.544279681717122e+01 6.130812147069298e-01 4.922850654275923e-01
2.553398963730445e+01 6.555324312737516e-01 4.382163185512479e-01
2.562518245743768e+01 6.929177477754398e-01 3.812578403828454e-01
2.571637527757091e+01 7.249942137222116e-01 3.218588190038686e-01
2.580756809770414e+01 7.515592512194262e-01 2.604550802675692e-01
2.589876091783737e+01 7.724493532703940e-01 1.974676041692501e-01
2.598995373797060e+01 7.875387361907030e-01 1.333029590996782e-01
2.608114655810383e+01 7.967381080662410e-01 6.835535730742454e-02
2.617233937823706e+01 7.999936851575700e-01 3.009973839401887e-03
2.626353219837029e+01 7.972865536154781e-01 -6.235286754534110e-02
2.635472501850352e+01 7.886324365993879e-01 -1.273530600903969e-01
2.644591783863675e+01 7.740818881830073e-01 -1.916060599586190e-01
2.653711065876998e+01 7.537208962611743e-01 -2.547186413410954e-01
2.662830347890321e+01 7.276718378848821e-01 -3.162854807289048e-01
2.671949629903644e+01 6.960946929982920e-01 -3.758869695024243e-01
2.681068911916967e+01 6.591883876957481e-01 -4.330886169802181e-01
2.690188193930290e+01 6.171921075845422e-01 -4.874423473010636e-01
